#DRSE 153 Mpc
#frequency seismic suspension_thermal mirror_thermal quantum quantum_squeezing total
1.000e+00 7.775e-16 9.711e-20 2.136e-23 2.974e-20 6.055e-20 7.775e-16
1.009e+00 7.226e-16 9.291e-20 2.126e-23 2.920e-20 5.945e-20 7.226e-16
1.019e+00 6.716e-16 8.898e-20 2.116e-23 2.867e-20 5.836e-20 6.716e-16
1.028e+00 6.241e-16 8.531e-20 2.107e-23 2.814e-20 5.730e-20 6.241e-16
1.038e+00 5.801e-16 8.187e-20 2.097e-23 2.763e-20 5.625e-20 5.801e-16
1.047e+00 5.391e-16 7.865e-20 2.088e-23 2.712e-20 5.522e-20 5.391e-16
1.057e+00 5.011e-16 7.562e-20 2.078e-23 2.663e-20 5.421e-20 5.011e-16
1.067e+00 4.657e-16 7.278e-20 2.069e-23 2.614e-20 5.322e-20 4.657e-16
1.077e+00 4.328e-16 7.010e-20 2.060e-23 2.566e-20 5.225e-20 4.328e-16
1.087e+00 4.023e-16 6.758e-20 2.050e-23 2.520e-20 5.130e-20 4.023e-16
1.097e+00 3.739e-16 6.521e-20 2.041e-23 2.474e-20 5.036e-20 3.739e-16
1.107e+00 3.476e-16 6.297e-20 2.032e-23 2.428e-20 4.944e-20 3.476e-16
1.117e+00 3.230e-16 6.085e-20 2.023e-23 2.384e-20 4.854e-20 3.230e-16
1.127e+00 3.003e-16 5.886e-20 2.013e-23 2.340e-20 4.765e-20 3.003e-16
1.138e+00 2.791e-16 5.697e-20 2.004e-23 2.298e-20 4.678e-20 2.791e-16
1.148e+00 2.594e-16 5.519e-20 1.995e-23 2.256e-20 4.593e-20 2.594e-16
1.159e+00 2.411e-16 5.351e-20 1.986e-23 2.214e-20 4.509e-20 2.411e-16
1.170e+00 2.242e-16 5.192e-20 1.977e-23 2.174e-20 4.427e-20 2.242e-16
1.181e+00 2.084e-16 5.042e-20 1.968e-23 2.134e-20 4.346e-20 2.084e-16
1.191e+00 1.937e-16 4.900e-20 1.959e-23 2.095e-20 4.266e-20 1.937e-16
1.202e+00 1.801e-16 4.766e-20 1.951e-23 2.057e-20 4.188e-20 1.801e-16
1.214e+00 1.674e-16 4.640e-20 1.942e-23 2.019e-20 4.112e-20 1.674e-16
1.225e+00 1.556e-16 4.520e-20 1.933e-23 1.982e-20 4.037e-20 1.556e-16
1.236e+00 1.447e-16 4.408e-20 1.924e-23 1.946e-20 3.963e-20 1.447e-16
1.248e+00 1.345e-16 4.303e-20 1.916e-23 1.911e-20 3.891e-20 1.345e-16
1.259e+00 1.250e-16 4.204e-20 1.907e-23 1.876e-20 3.820e-20 1.250e-16
1.271e+00 1.162e-16 4.111e-20 1.898e-23 1.841e-20 3.750e-20 1.162e-16
1.283e+00 1.081e-16 4.024e-20 1.890e-23 1.808e-20 3.682e-20 1.081e-16
1.295e+00 1.005e-16 3.943e-20 1.881e-23 1.775e-20 3.614e-20 1.005e-16
1.307e+00 9.340e-17 3.868e-20 1.873e-23 1.742e-20 3.548e-20 9.340e-17
1.319e+00 8.684e-17 3.799e-20 1.864e-23 1.710e-20 3.484e-20 8.684e-17
1.331e+00 8.074e-17 3.735e-20 1.856e-23 1.679e-20 3.420e-20 8.074e-17
1.343e+00 7.507e-17 3.677e-20 1.848e-23 1.649e-20 3.358e-20 7.507e-17
1.356e+00 6.980e-17 3.624e-20 1.839e-23 1.618e-20 3.296e-20 6.980e-17
1.368e+00 6.490e-17 3.577e-20 1.831e-23 1.589e-20 3.236e-20 6.490e-17
1.381e+00 6.035e-17 3.536e-20 1.823e-23 1.560e-20 3.177e-20 6.035e-17
1.394e+00 5.612e-17 3.500e-20 1.814e-23 1.531e-20 3.119e-20 5.612e-17
1.407e+00 5.218e-17 3.470e-20 1.806e-23 1.503e-20 3.062e-20 5.218e-17
1.420e+00 4.852e-17 3.446e-20 1.798e-23 1.476e-20 3.006e-20 4.852e-17
1.433e+00 4.512e-17 3.428e-20 1.790e-23 1.449e-20 2.951e-20 4.512e-17
1.446e+00 4.196e-17 3.417e-20 1.782e-23 1.422e-20 2.897e-20 4.196e-17
1.459e+00 3.902e-17 3.412e-20 1.774e-23 1.396e-20 2.845e-20 3.902e-17
1.473e+00 3.629e-17 3.414e-20 1.766e-23 1.371e-20 2.793e-20 3.629e-17
1.487e+00 3.375e-17 3.424e-20 1.758e-23 1.346e-20 2.742e-20 3.375e-17
1.500e+00 3.139e-17 3.442e-20 1.750e-23 1.321e-20 2.692e-20 3.139e-17
1.514e+00 2.919e-17 3.468e-20 1.742e-23 1.297e-20 2.642e-20 2.919e-17
1.528e+00 2.715e-17 3.504e-20 1.734e-23 1.273e-20 2.594e-20 2.715e-17
1.542e+00 2.525e-17 3.550e-20 1.726e-23 1.250e-20 2.547e-20 2.525e-17
1.557e+00 2.349e-17 3.608e-20 1.719e-23 1.227e-20 2.500e-20 2.349e-17
1.571e+00 2.185e-17 3.679e-20 1.711e-23 1.205e-20 2.455e-20 2.185e-17
1.586e+00 2.032e-17 3.764e-20 1.703e-23 1.183e-20 2.410e-20 2.032e-17
1.600e+00 1.890e-17 3.866e-20 1.695e-23 1.161e-20 2.366e-20 1.890e-17
1.615e+00 1.758e-17 3.988e-20 1.688e-23 1.140e-20 2.323e-20 1.758e-17
1.630e+00 1.636e-17 4.132e-20 1.680e-23 1.119e-20 2.280e-20 1.636e-17
1.645e+00 1.522e-17 4.303e-20 1.673e-23 1.099e-20 2.239e-20 1.522e-17
1.660e+00 1.416e-17 4.507e-20 1.665e-23 1.079e-20 2.198e-20 1.416e-17
1.676e+00 1.317e-17 4.751e-20 1.658e-23 1.059e-20 2.158e-20 1.317e-17
1.691e+00 1.225e-17 5.046e-20 1.650e-23 1.039e-20 2.118e-20 1.225e-17
1.707e+00 1.140e-17 5.404e-20 1.643e-23 1.020e-20 2.080e-20 1.140e-17
1.723e+00 1.061e-17 5.847e-20 1.635e-23 1.002e-20 2.042e-20 1.061e-17
1.739e+00 9.868e-18 6.404e-20 1.628e-23 9.835e-21 2.005e-20 9.868e-18
1.755e+00 9.182e-18 7.121e-20 1.621e-23 9.655e-21 1.968e-20 9.182e-18
1.771e+00 8.544e-18 8.072e-20 1.613e-23 9.479e-21 1.932e-20 8.544e-18
1.788e+00 7.950e-18 9.386e-20 1.606e-23 9.306e-21 1.897e-20 7.951e-18
1.804e+00 7.398e-18 1.131e-19 1.599e-23 9.136e-21 1.862e-20 7.399e-18
1.821e+00 6.885e-18 1.439e-19 1.592e-23 8.969e-21 1.828e-20 6.886e-18
1.838e+00 6.407e-18 2.008e-19 1.585e-23 8.805e-21 1.795e-20 6.410e-18
1.855e+00 5.963e-18 3.402e-19 1.577e-23 8.644e-21 1.762e-20 5.973e-18
1.872e+00 5.550e-18 1.210e-18 1.570e-23 8.486e-21 1.730e-20 5.680e-18
1.889e+00 5.165e-18 7.365e-19 1.563e-23 8.331e-21 1.698e-20 5.217e-18
1.907e+00 4.807e-18 2.769e-19 1.556e-23 8.178e-21 1.667e-20 4.815e-18
1.924e+00 4.475e-18 1.686e-19 1.549e-23 8.029e-21 1.637e-20 4.478e-18
1.942e+00 4.165e-18 1.202e-19 1.542e-23 7.882e-21 1.607e-20 4.167e-18
1.960e+00 3.877e-18 9.285e-20 1.535e-23 7.738e-21 1.578e-20 3.878e-18
1.978e+00 3.609e-18 7.526e-20 1.528e-23 7.596e-21 1.549e-20 3.610e-18
1.997e+00 3.360e-18 6.303e-20 1.521e-23 7.457e-21 1.521e-20 3.361e-18
2.015e+00 3.128e-18 5.403e-20 1.515e-23 7.321e-21 1.493e-20 3.129e-18
2.034e+00 2.912e-18 4.714e-20 1.508e-23 7.187e-21 1.466e-20 2.913e-18
2.053e+00 2.711e-18 4.171e-20 1.501e-23 7.056e-21 1.439e-20 2.712e-18
2.072e+00 2.525e-18 3.731e-20 1.494e-23 6.927e-21 1.413e-20 2.525e-18
2.091e+00 2.351e-18 3.368e-20 1.488e-23 6.800e-21 1.387e-20 2.351e-18
2.110e+00 2.189e-18 3.064e-20 1.481e-23 6.676e-21 1.362e-20 2.189e-18
2.130e+00 2.038e-18 2.805e-20 1.474e-23 6.554e-21 1.337e-20 2.038e-18
2.149e+00 1.898e-18 2.582e-20 1.468e-23 6.434e-21 1.313e-20 1.898e-18
2.169e+00 1.768e-18 2.389e-20 1.461e-23 6.316e-21 1.289e-20 1.768e-18
2.189e+00 1.646e-18 2.219e-20 1.454e-23 6.201e-21 1.265e-20 1.646e-18
2.210e+00 1.533e-18 2.070e-20 1.448e-23 6.087e-21 1.242e-20 1.533e-18
2.230e+00 1.428e-18 1.936e-20 1.441e-23 5.976e-21 1.219e-20 1.428e-18
2.251e+00 1.330e-18 1.817e-20 1.435e-23 5.867e-21 1.197e-20 1.330e-18
2.272e+00 1.239e-18 1.709e-20 1.429e-23 5.760e-21 1.175e-20 1.239e-18
2.293e+00 1.154e-18 1.612e-20 1.422e-23 5.654e-21 1.154e-20 1.154e-18
2.314e+00 1.075e-18 1.524e-20 1.416e-23 5.551e-21 1.133e-20 1.075e-18
2.335e+00 1.002e-18 1.443e-20 1.409e-23 5.449e-21 1.112e-20 1.002e-18
2.357e+00 9.334e-19 1.369e-20 1.403e-23 5.350e-21 1.092e-20 9.335e-19
2.379e+00 8.697e-19 1.301e-20 1.397e-23 5.252e-21 1.072e-20 8.698e-19
2.401e+00 8.103e-19 1.238e-20 1.390e-23 5.156e-21 1.053e-20 8.104e-19
2.423e+00 7.551e-19 1.180e-20 1.384e-23 5.062e-21 1.033e-20 7.552e-19
2.446e+00 7.036e-19 1.127e-20 1.378e-23 4.969e-21 1.015e-20 7.038e-19
2.468e+00 6.557e-19 1.076e-20 1.372e-23 4.878e-21 9.960e-21 6.559e-19
2.491e+00 6.111e-19 1.030e-20 1.366e-23 4.789e-21 9.779e-21 6.112e-19
2.514e+00 5.696e-19 9.860e-21 1.360e-23 4.701e-21 9.601e-21 5.697e-19
2.537e+00 5.309e-19 9.451e-21 1.353e-23 4.615e-21 9.426e-21 5.310e-19
2.561e+00 4.949e-19 9.067e-21 1.347e-23 4.531e-21 9.254e-21 4.950e-19
2.585e+00 4.613e-19 8.706e-21 1.341e-23 4.448e-21 9.085e-21 4.614e-19
2.609e+00 4.300e-19 8.366e-21 1.335e-23 4.367e-21 8.920e-21 4.301e-19
2.633e+00 4.009e-19 8.045e-21 1.329e-23 4.287e-21 8.757e-21 4.010e-19
2.657e+00 3.738e-19 7.742e-21 1.323e-23 4.208e-21 8.598e-21 3.739e-19
2.682e+00 3.485e-19 7.455e-21 1.317e-23 4.131e-21 8.441e-21 3.486e-19
2.707e+00 3.250e-19 7.183e-21 1.312e-23 4.056e-21 8.287e-21 3.251e-19
2.732e+00 3.030e-19 6.925e-21 1.306e-23 3.982e-21 8.136e-21 3.031e-19
2.757e+00 2.826e-19 6.680e-21 1.300e-23 3.909e-21 7.988e-21 2.827e-19
2.783e+00 2.635e-19 6.447e-21 1.294e-23 3.837e-21 7.843e-21 2.636e-19
2.808e+00 2.458e-19 6.226e-21 1.288e-23 3.767e-21 7.700e-21 2.459e-19
2.834e+00 2.292e-19 6.014e-21 1.282e-23 3.698e-21 7.560e-21 2.293e-19
2.861e+00 2.138e-19 5.812e-21 1.277e-23 3.631e-21 7.422e-21 2.139e-19
2.887e+00 1.995e-19 5.620e-21 1.271e-23 3.564e-21 7.287e-21 1.996e-19
2.914e+00 1.861e-19 5.436e-21 1.265e-23 3.499e-21 7.154e-21 1.862e-19
2.941e+00 1.736e-19 5.260e-21 1.260e-23 3.435e-21 7.024e-21 1.737e-19
2.968e+00 1.620e-19 5.091e-21 1.254e-23 3.372e-21 6.896e-21 1.621e-19
2.996e+00 1.511e-19 4.930e-21 1.248e-23 3.310e-21 6.771e-21 1.512e-19
3.023e+00 1.410e-19 4.775e-21 1.243e-23 3.250e-21 6.647e-21 1.411e-19
3.051e+00 1.316e-19 4.626e-21 1.237e-23 3.190e-21 6.526e-21 1.317e-19
3.080e+00 1.228e-19 4.484e-21 1.232e-23 3.132e-21 6.408e-21 1.229e-19
3.108e+00 1.146e-19 4.347e-21 1.226e-23 3.075e-21 6.291e-21 1.147e-19
3.137e+00 1.070e-19 4.215e-21 1.221e-23 3.018e-21 6.176e-21 1.071e-19
3.166e+00 9.985e-20 4.089e-21 1.215e-23 2.963e-21 6.064e-21 9.997e-20
3.195e+00 9.320e-20 3.967e-21 1.210e-23 2.909e-21 5.954e-21 9.333e-20
3.225e+00 8.701e-20 3.849e-21 1.204e-23 2.856e-21 5.845e-21 8.714e-20
3.255e+00 8.123e-20 3.736e-21 1.199e-23 2.803e-21 5.739e-21 8.136e-20
3.285e+00 7.584e-20 3.627e-21 1.194e-23 2.752e-21 5.635e-21 7.598e-20
3.315e+00 7.081e-20 3.522e-21 1.188e-23 2.702e-21 5.532e-21 7.095e-20
3.346e+00 6.612e-20 3.421e-21 1.183e-23 2.652e-21 5.432e-21 6.626e-20
3.377e+00 6.175e-20 3.323e-21 1.178e-23 2.604e-21 5.333e-21 6.189e-20
3.408e+00 5.767e-20 3.229e-21 1.172e-23 2.556e-21 5.236e-21 5.781e-20
3.440e+00 5.386e-20 3.138e-21 1.167e-23 2.509e-21 5.141e-21 5.401e-20
3.472e+00 5.030e-20 3.050e-21 1.162e-23 2.463e-21 5.047e-21 5.046e-20
3.504e+00 4.699e-20 2.964e-21 1.157e-23 2.418e-21 4.955e-21 4.714e-20
3.536e+00 4.389e-20 2.882e-21 1.152e-23 2.374e-21 4.865e-21 4.405e-20
3.569e+00 4.101e-20 2.803e-21 1.146e-23 2.330e-21 4.777e-21 4.117e-20
3.602e+00 3.831e-20 2.726e-21 1.141e-23 2.288e-21 4.690e-21 3.848e-20
3.635e+00 3.580e-20 2.651e-21 1.136e-23 2.246e-21 4.605e-21 3.596e-20
3.669e+00 3.345e-20 2.579e-21 1.131e-23 2.205e-21 4.521e-21 3.362e-20
3.703e+00 3.126e-20 2.509e-21 1.126e-23 2.164e-21 4.439e-21 3.143e-20
3.737e+00 2.921e-20 2.441e-21 1.121e-23 2.125e-21 4.358e-21 2.939e-20
3.772e+00 2.730e-20 2.376e-21 1.116e-23 2.086e-21 4.279e-21 2.748e-20
3.807e+00 2.552e-20 2.312e-21 1.111e-23 2.048e-21 4.202e-21 2.570e-20
3.842e+00 2.385e-20 2.251e-21 1.106e-23 2.010e-21 4.125e-21 2.404e-20
3.878e+00 2.229e-20 2.191e-21 1.101e-23 1.973e-21 4.050e-21 2.249e-20
3.914e+00 2.084e-20 2.133e-21 1.096e-23 1.937e-21 3.977e-21 2.104e-20
3.950e+00 1.949e-20 2.077e-21 1.091e-23 1.902e-21 3.905e-21 1.969e-20
3.987e+00 1.822e-20 2.023e-21 1.086e-23 1.867e-21 3.834e-21 1.843e-20
4.024e+00 1.704e-20 1.970e-21 1.082e-23 1.833e-21 3.764e-21 1.725e-20
4.061e+00 1.593e-20 1.918e-21 1.077e-23 1.799e-21 3.696e-21 1.615e-20
4.098e+00 1.490e-20 1.869e-21 1.072e-23 1.766e-21 3.629e-21 1.512e-20
4.136e+00 1.393e-20 1.820e-21 1.067e-23 1.734e-21 3.563e-21 1.416e-20
4.175e+00 1.303e-20 1.773e-21 1.062e-23 1.702e-21 3.498e-21 1.326e-20
4.213e+00 1.219e-20 1.728e-21 1.058e-23 1.671e-21 3.435e-21 1.242e-20
4.252e+00 1.140e-20 1.683e-21 1.053e-23 1.640e-21 3.372e-21 1.164e-20
4.292e+00 1.067e-20 1.640e-21 1.048e-23 1.610e-21 3.311e-21 1.091e-20
4.331e+00 9.979e-21 1.599e-21 1.044e-23 1.581e-21 3.251e-21 1.023e-20
4.372e+00 9.336e-21 1.558e-21 1.039e-23 1.552e-21 3.192e-21 9.592e-21
4.412e+00 8.736e-21 1.518e-21 1.034e-23 1.523e-21 3.134e-21 8.997e-21
4.453e+00 8.175e-21 1.480e-21 1.030e-23 1.495e-21 3.078e-21 8.441e-21
4.494e+00 7.650e-21 1.443e-21 1.025e-23 1.468e-21 3.022e-21 7.922e-21
4.536e+00 7.159e-21 1.406e-21 1.021e-23 1.441e-21 2.967e-21 7.437e-21
4.578e+00 6.701e-21 1.371e-21 1.016e-23 1.415e-21 2.913e-21 6.984e-21
4.620e+00 6.272e-21 1.337e-21 1.012e-23 1.389e-21 2.861e-21 6.561e-21
4.663e+00 5.871e-21 1.303e-21 1.007e-23 1.363e-21 2.809e-21 6.167e-21
4.706e+00 5.496e-21 1.271e-21 1.003e-23 1.338e-21 2.758e-21 5.798e-21
4.750e+00 5.145e-21 1.239e-21 9.981e-24 1.314e-21 2.708e-21 5.453e-21
4.794e+00 4.817e-21 1.209e-21 9.937e-24 1.290e-21 2.659e-21 5.131e-21
4.838e+00 4.511e-21 1.179e-21 9.892e-24 1.266e-21 2.611e-21 4.831e-21
4.883e+00 4.224e-21 1.150e-21 9.848e-24 1.243e-21 2.564e-21 4.550e-21
4.928e+00 3.955e-21 1.121e-21 9.804e-24 1.220e-21 2.517e-21 4.288e-21
4.974e+00 3.704e-21 1.094e-21 9.761e-24 1.197e-21 2.472e-21 4.044e-21
5.020e+00 3.469e-21 1.067e-21 9.717e-24 1.176e-21 2.427e-21 3.815e-21
5.066e+00 3.249e-21 1.041e-21 9.674e-24 1.154e-21 2.383e-21 3.602e-21
5.113e+00 3.044e-21 1.015e-21 9.631e-24 1.133e-21 2.340e-21 3.403e-21
5.161e+00 2.851e-21 9.905e-22 9.588e-24 1.112e-21 2.298e-21 3.217e-21
5.209e+00 2.671e-21 9.664e-22 9.546e-24 1.092e-21 2.256e-21 3.043e-21
5.257e+00 2.502e-21 9.429e-22 9.503e-24 1.072e-21 2.215e-21 2.881e-21
5.305e+00 2.345e-21 9.200e-22 9.461e-24 1.052e-21 2.175e-21 2.729e-21
5.355e+00 2.197e-21 8.977e-22 9.419e-24 1.033e-21 2.136e-21 2.588e-21
5.404e+00 2.059e-21 8.760e-22 9.377e-24 1.014e-21 2.098e-21 2.456e-21
5.454e+00 1.929e-21 8.549e-22 9.335e-24 9.950e-22 2.060e-21 2.333e-21
5.505e+00 1.808e-21 8.343e-22 9.294e-24 9.767e-22 2.023e-21 2.218e-21
5.556e+00 1.694e-21 8.142e-22 9.253e-24 9.588e-22 1.986e-21 2.110e-21
5.607e+00 1.588e-21 7.947e-22 9.212e-24 9.412e-22 1.950e-21 2.010e-21
5.659e+00 1.489e-21 7.757e-22 9.171e-24 9.239e-22 1.915e-21 1.916e-21
5.712e+00 1.396e-21 7.571e-22 9.130e-24 9.069e-22 1.880e-21 1.828e-21
5.764e+00 1.308e-21 7.391e-22 9.089e-24 8.903e-22 1.847e-21 1.747e-21
5.818e+00 1.227e-21 7.215e-22 9.049e-24 8.739e-22 1.813e-21 1.670e-21
5.872e+00 1.150e-21 7.043e-22 9.009e-24 8.578e-22 1.781e-21 1.598e-21
5.926e+00 1.078e-21 6.876e-22 8.969e-24 8.421e-22 1.749e-21 1.531e-21
5.981e+00 1.011e-21 6.713e-22 8.929e-24 8.266e-22 1.717e-21 1.468e-21
6.036e+00 9.482e-22 6.554e-22 8.890e-24 8.114e-22 1.686e-21 1.410e-21
6.092e+00 8.893e-22 6.400e-22 8.850e-24 7.965e-22 1.656e-21 1.355e-21
6.149e+00 8.340e-22 6.249e-22 8.811e-24 7.818e-22 1.626e-21 1.303e-21
6.206e+00 7.823e-22 6.102e-22 8.772e-24 7.675e-22 1.597e-21 1.254e-21
6.263e+00 7.338e-22 5.959e-22 8.733e-24 7.534e-22 1.568e-21 1.209e-21
6.321e+00 6.883e-22 5.820e-22 8.694e-24 7.395e-22 1.540e-21 1.166e-21
6.380e+00 6.457e-22 5.684e-22 8.656e-24 7.259e-22 1.512e-21 1.126e-21
6.439e+00 6.058e-22 5.551e-22 8.617e-24 7.125e-22 1.485e-21 1.088e-21
6.498e+00 5.684e-22 5.422e-22 8.579e-24 6.994e-22 1.458e-21 1.052e-21
6.559e+00 5.333e-22 5.297e-22 8.541e-24 6.866e-22 1.432e-21 1.018e-21
6.619e+00 5.004e-22 5.174e-22 8.503e-24 6.739e-22 1.406e-21 9.861e-22
6.681e+00 4.696e-22 5.055e-22 8.466e-24 6.615e-22 1.381e-21 9.559e-22
6.743e+00 4.407e-22 4.938e-22 8.428e-24 6.493e-22 1.356e-21 9.273e-22
6.805e+00 4.136e-22 4.825e-22 8.391e-24 6.374e-22 1.332e-21 9.001e-22
6.868e+00 3.882e-22 4.715e-22 8.354e-24 6.256e-22 1.308e-21 8.744e-22
6.932e+00 3.644e-22 4.607e-22 8.317e-24 6.141e-22 1.285e-21 8.499e-22
6.996e+00 3.420e-22 4.503e-22 8.280e-24 6.028e-22 1.262e-21 8.265e-22
7.061e+00 3.211e-22 4.401e-22 8.243e-24 5.917e-22 1.239e-21 8.043e-22
7.126e+00 3.014e-22 4.301e-22 8.207e-24 5.808e-22 1.217e-21 7.831e-22
7.192e+00 2.830e-22 4.205e-22 8.170e-24 5.701e-22 1.195e-21 7.629e-22
7.259e+00 2.657e-22 4.111e-22 8.134e-24 5.596e-22 1.174e-21 7.435e-22
7.326e+00 2.495e-22 4.019e-22 8.098e-24 5.493e-22 1.153e-21 7.250e-22
7.394e+00 2.343e-22 3.930e-22 8.062e-24 5.391e-22 1.132e-21 7.072e-22
7.462e+00 2.200e-22 3.843e-22 8.027e-24 5.292e-22 1.112e-21 6.901e-22
7.531e+00 2.066e-22 3.759e-22 7.991e-24 5.194e-22 1.092e-21 6.737e-22
7.601e+00 1.941e-22 3.677e-22 7.956e-24 5.099e-22 1.072e-21 6.580e-22
7.672e+00 1.823e-22 3.598e-22 7.921e-24 5.005e-22 1.053e-21 6.428e-22
7.743e+00 1.712e-22 3.520e-22 7.886e-24 4.912e-22 1.034e-21 6.282e-22
7.814e+00 1.608e-22 3.445e-22 7.851e-24 4.822e-22 1.016e-21 6.141e-22
7.887e+00 1.511e-22 3.372e-22 7.816e-24 4.732e-22 9.979e-22 6.005e-22
7.960e+00 1.420e-22 3.302e-22 7.782e-24 4.645e-22 9.801e-22 5.874e-22
8.034e+00 1.334e-22 3.233e-22 7.747e-24 4.559e-22 9.626e-22 5.747e-22
8.108e+00 1.253e-22 3.167e-22 7.713e-24 4.475e-22 9.455e-22 5.624e-22
8.183e+00 1.178e-22 3.103e-22 7.679e-24 4.392e-22 9.287e-22 5.506e-22
8.259e+00 1.107e-22 3.041e-22 7.645e-24 4.311e-22 9.121e-22 5.391e-22
8.335e+00 1.040e-22 2.981e-22 7.611e-24 4.232e-22 8.959e-22 5.280e-22
8.412e+00 9.774e-23 2.923e-22 7.578e-24 4.153e-22 8.800e-22 5.173e-22
8.490e+00 9.187e-23 2.868e-22 7.544e-24 4.077e-22 8.644e-22 5.069e-22
8.569e+00 8.635e-23 2.814e-22 7.511e-24 4.001e-22 8.490e-22 4.968e-22
8.648e+00 8.117e-23 2.763e-22 7.478e-24 3.927e-22 8.339e-22 4.871e-22
8.729e+00 7.631e-23 2.714e-22 7.445e-24 3.854e-22 8.191e-22 4.776e-22
8.809e+00 7.174e-23 2.668e-22 7.412e-24 3.783e-22 8.046e-22 4.685e-22
8.891e+00 6.745e-23 2.624e-22 7.379e-24 3.713e-22 7.903e-22 4.597e-22
8.973e+00 6.342e-23 2.582e-22 7.347e-24 3.644e-22 7.763e-22 4.512e-22
9.056e+00 5.964e-23 2.543e-22 7.314e-24 3.577e-22 7.626e-22 4.429e-22
9.140e+00 5.608e-23 2.506e-22 7.282e-24 3.510e-22 7.491e-22 4.350e-22
9.225e+00 5.274e-23 2.473e-22 7.250e-24 3.445e-22 7.358e-22 4.274e-22
9.310e+00 4.961e-23 2.442e-22 7.218e-24 3.382e-22 7.228e-22 4.201e-22
9.397e+00 4.666e-23 2.414e-22 7.186e-24 3.319e-22 7.101e-22 4.131e-22
9.484e+00 4.389e-23 2.390e-22 7.155e-24 3.257e-22 6.975e-22 4.065e-22
9.572e+00 4.129e-23 2.370e-22 7.123e-24 3.197e-22 6.852e-22 4.001e-22
9.660e+00 3.884e-23 2.353e-22 7.092e-24 3.138e-22 6.731e-22 3.942e-22
9.750e+00 3.655e-23 2.341e-22 7.060e-24 3.079e-22 6.613e-22 3.886e-22
9.840e+00 3.439e-23 2.334e-22 7.029e-24 3.022e-22 6.496e-22 3.834e-22
9.931e+00 3.236e-23 2.332e-22 6.998e-24 2.966e-22 6.382e-22 3.787e-22
1.002e+01 3.045e-23 2.336e-22 6.968e-24 2.911e-22 6.269e-22 3.745e-22
1.012e+01 2.866e-23 2.347e-22 6.937e-24 2.857e-22 6.159e-22 3.709e-22
1.021e+01 2.697e-23 2.367e-22 6.906e-24 2.804e-22 6.051e-22 3.680e-22
1.030e+01 2.539e-23 2.395e-22 6.876e-24 2.751e-22 5.945e-22 3.657e-22
1.040e+01 2.390e-23 2.435e-22 6.846e-24 2.700e-22 5.840e-22 3.644e-22
1.050e+01 2.250e-23 2.487e-22 6.816e-24 2.650e-22 5.738e-22 3.642e-22
1.059e+01 2.118e-23 2.555e-22 6.786e-24 2.601e-22 5.637e-22 3.652e-22
1.069e+01 1.994e-23 2.642e-22 6.756e-24 2.552e-22 5.539e-22 3.679e-22
1.079e+01 1.878e-23 2.752e-22 6.726e-24 2.505e-22 5.442e-22 3.727e-22
1.089e+01 1.768e-23 2.893e-22 6.696e-24 2.458e-22 5.347e-22 3.801e-22
1.099e+01 1.665e-23 3.072e-22 6.667e-24 2.412e-22 5.253e-22 3.910e-22
1.109e+01 1.569e-23 3.302e-22 6.638e-24 2.367e-22 5.161e-22 4.066e-22
1.120e+01 1.478e-23 3.602e-22 6.609e-24 2.323e-22 5.071e-22 4.289e-22
1.130e+01 1.392e-23 4.001e-22 6.580e-24 2.280e-22 4.983e-22 4.608e-22
1.140e+01 1.311e-23 4.550e-22 6.551e-24 2.237e-22 4.896e-22 5.073e-22
1.151e+01 1.236e-23 5.339e-22 6.522e-24 2.195e-22 4.811e-22 5.774e-22
1.162e+01 1.164e-23 6.548e-22 6.493e-24 2.154e-22 4.727e-22 6.894e-22
1.172e+01 1.097e-23 8.604e-22 6.465e-24 2.114e-22 4.645e-22 8.861e-22
1.183e+01 1.034e-23 1.281e-21 6.436e-24 2.074e-22 4.564e-22 1.298e-21
1.194e+01 9.746e-24 2.604e-21 6.408e-24 2.036e-22 4.485e-22 2.612e-21
1.205e+01 9.187e-24 4.107e-20 6.380e-24 1.998e-22 4.407e-22 4.107e-20
1.216e+01 8.661e-24 2.262e-21 6.352e-24 1.960e-22 4.331e-22 2.270e-21
1.228e+01 8.166e-24 1.153e-21 6.324e-24 1.923e-22 4.256e-22 1.169e-21
1.239e+01 7.700e-24 7.709e-22 6.296e-24 1.887e-22 4.182e-22 7.938e-22
1.251e+01 7.261e-24 5.780e-22 6.269e-24 1.852e-22 4.110e-22 6.070e-22
1.262e+01 6.848e-24 4.620e-22 6.241e-24 1.817e-22 4.039e-22 4.965e-22
1.274e+01 6.459e-24 3.848e-22 6.214e-24 1.783e-22 3.969e-22 4.242e-22
1.286e+01 6.093e-24 3.298e-22 6.187e-24 1.750e-22 3.901e-22 3.734e-22
1.298e+01 5.748e-24 2.887e-22 6.159e-24 1.717e-22 3.834e-22 3.360e-22
1.310e+01 5.424e-24 2.569e-22 6.132e-24 1.684e-22 3.768e-22 3.073e-22
1.322e+01 5.118e-24 2.315e-22 6.106e-24 1.653e-22 3.703e-22 2.846e-22
1.334e+01 4.830e-24 2.109e-22 6.079e-24 1.622e-22 3.640e-22 2.661e-22
1.346e+01 4.559e-24 1.937e-22 6.052e-24 1.591e-22 3.577e-22 2.508e-22
1.359e+01 4.303e-24 1.792e-22 6.026e-24 1.561e-22 3.516e-22 2.378e-22
