freq, Total, Seismic, Newtonian, TnTot, tnMir, tnPend, ThElastMir, tnviol, Shot, RadPres, QL, Creep, Acoustic, Distorsion, reflect, Absorption, Magnetic
0.1012, 1.494E-9, 1.494E-9, 2.865E-14, 7.312E-18, 1.302E-21, 7.312E-18, 7.761E-22, 6.728E-23, 3.208E-23, 2.34E-19, 3.519E-21, 5.524E-22, 2.013E-23, 7.691E-21, 1.286E-22, 1.186E-19, 2.46E-15
0.1023, 1.428E-9, 1.428E-9, 2.736E-14, 7.275E-18, 1.294E-21, 7.275E-18, 7.672E-22, 6.689E-23, 3.208E-23, 2.287E-19, 3.479E-21, 5.461E-22, 1.945E-23, 7.473E-21, 1.257E-22, 1.152E-19, 2.351E-15
0.1035, 1.365E-9, 1.365E-9, 2.613E-14, 7.238E-18, 1.287E-21, 7.238E-18, 7.585E-22, 6.651E-23, 3.208E-23, 2.235E-19, 3.439E-21, 5.398E-22, 1.879E-23, 7.261E-21, 1.228E-22, 1.119E-19, 2.247E-15
0.1047, 1.305E-9, 1.305E-9, 2.495E-14, 7.202E-18, 1.279E-21, 7.202E-18, 7.498E-22, 6.612E-23, 3.208E-23, 2.184E-19, 3.4E-21, 5.337E-22, 1.815E-23, 7.055E-21, 1.2E-22, 1.088E-19, 2.147E-15
0.1059, 1.247E-9, 1.247E-9, 2.383E-14, 7.166E-18, 1.272E-21, 7.166E-18, 7.412E-22, 6.574E-23, 3.208E-23, 2.134E-19, 3.361E-21, 5.276E-22, 1.753E-23, 6.855E-21, 1.173E-22, 1.057E-19, 2.052E-15
0.1072, 1.193E-9, 1.193E-9, 2.276E-14, 7.131E-18, 1.265E-21, 7.131E-18, 7.327E-22, 6.537E-23, 3.208E-23, 2.086E-19, 3.323E-21, 5.215E-22, 1.694E-23, 6.66E-21, 1.146E-22, 1.027E-19, 1.961E-15
0.1084, 1.141E-9, 1.141E-9, 2.173E-14, 7.095E-18, 1.257E-21, 7.095E-18, 7.243E-22, 6.499E-23, 3.208E-23, 2.038E-19, 3.284E-21, 5.156E-22, 1.636E-23, 6.471E-21, 1.12E-22, 9.977E-20, 1.874E-15
0.1096, 1.092E-9, 1.092E-9, 2.075E-14, 7.06E-18, 1.25E-21, 7.06E-18, 7.16E-22, 6.462E-23, 3.208E-23, 1.992E-19, 3.247E-21, 5.097E-22, 1.581E-23, 6.287E-21, 1.095E-22, 9.694E-20, 1.791E-15
0.1109, 1.045E-9, 1.045E-9, 1.982E-14, 7.025E-18, 1.243E-21, 7.025E-18, 7.078E-22, 6.425E-23, 3.208E-23, 1.946E-19, 3.21E-21, 5.038E-22, 1.527E-23, 6.109E-21, 1.07E-22, 9.419E-20, 1.712E-15
0.1122, 1.001E-9, 1.001E-9, 1.893E-14, 6.991E-18, 1.236E-21, 6.991E-18, 6.997E-22, 6.388E-23, 3.208E-23, 1.902E-19, 3.173E-21, 4.981E-22, 1.475E-23, 5.936E-21, 1.045E-22, 9.151E-20, 1.637E-15
0.1135, 9.582E-10, 9.582E-10, 1.808E-14, 6.957E-18, 1.229E-21, 6.957E-18, 6.917E-22, 6.351E-23, 3.208E-23, 1.859E-19, 3.137E-21, 4.924E-22, 1.425E-23, 5.767E-21, 1.022E-22, 8.892E-20, 1.564E-15
0.1148, 9.178E-10, 9.178E-10, 1.726E-14, 6.923E-18, 1.222E-21, 6.923E-18, 6.838E-22, 6.315E-23, 3.208E-23, 1.817E-19, 3.101E-21, 4.867E-22, 1.377E-23, 5.604E-21, 9.984E-23, 8.639E-20, 1.495E-15
0.1161, 8.793E-10, 8.793E-10, 1.649E-14, 6.89E-18, 1.215E-21, 6.89E-18, 6.76E-22, 6.279E-23, 3.208E-23, 1.775E-19, 3.065E-21, 4.812E-22, 1.33E-23, 5.445E-21, 9.756E-23, 8.394E-20, 1.429E-15
0.1175, 8.426E-10, 8.426E-10, 1.574E-14, 6.856E-18, 1.208E-21, 6.856E-18, 6.682E-22, 6.243E-23, 3.208E-23, 1.735E-19, 3.03E-21, 4.757E-22, 1.285E-23, 5.29E-21, 9.534E-23, 8.156E-20, 1.366E-15
0.1189, 8.077E-10, 8.077E-10, 1.504E-14, 6.824E-18, 1.201E-21, 6.824E-18, 6.606E-22, 6.207E-23, 3.208E-23, 1.695E-19, 2.995E-21, 4.702E-22, 1.241E-23, 5.14E-21, 9.317E-23, 7.925E-20, 1.306E-15
0.1202, 7.743E-10, 7.743E-10, 1.436E-14, 6.791E-18, 1.194E-21, 6.791E-18, 6.53E-22, 6.171E-23, 3.208E-23, 1.657E-19, 2.961E-21, 4.648E-22, 1.199E-23, 4.994E-21, 9.105E-23, 7.7E-20, 1.248E-15
0.1216, 7.426E-10, 7.426E-10, 1.371E-14, 6.759E-18, 1.187E-21, 6.759E-18, 6.456E-22, 6.136E-23, 3.208E-23, 1.619E-19, 2.927E-21, 4.595E-22, 1.158E-23, 4.853E-21, 8.898E-23, 7.481E-20, 1.193E-15
0.123, 7.124E-10, 7.124E-10, 1.31E-14, 6.727E-18, 1.18E-21, 6.727E-18, 6.382E-22, 6.1E-23, 3.208E-23, 1.582E-19, 2.894E-21, 4.543E-22, 1.119E-23, 4.715E-21, 8.695E-23, 7.269E-20, 1.141E-15
0.1245, 6.835E-10, 6.835E-10, 1.251E-14, 6.695E-18, 1.173E-21, 6.695E-18, 6.309E-22, 6.065E-23, 3.208E-23, 1.546E-19, 2.861E-21, 4.491E-22, 1.081E-23, 4.581E-21, 8.498E-23, 7.063E-20, 1.091E-15
0.1259, 6.56E-10, 6.56E-10, 1.194E-14, 6.664E-18, 1.167E-21, 6.664E-18, 6.236E-22, 6.031E-23, 3.208E-23, 1.511E-19, 2.828E-21, 4.439E-22, 1.044E-23, 4.451E-21, 8.304E-23, 6.863E-20, 1.043E-15
0.1274, 6.298E-10, 6.298E-10, 1.141E-14, 6.633E-18, 1.16E-21, 6.633E-18, 6.165E-22, 5.996E-23, 3.208E-23, 1.477E-19, 2.796E-21, 4.389E-22, 1.009E-23, 4.325E-21, 8.115E-23, 6.668E-20, 9.967E-16
0.1288, 6.047E-10, 6.047E-10, 1.089E-14, 6.602E-18, 1.153E-21, 6.602E-18, 6.094E-22, 5.962E-23, 3.208E-23, 1.443E-19, 2.764E-21, 4.338E-22, 9.747E-24, 4.202E-21, 7.93E-23, 6.479E-20, 9.529E-16
0.1303, 5.809E-10, 5.809E-10, 1.04E-14, 6.572E-18, 1.147E-21, 6.572E-18, 6.025E-22, 5.927E-23, 3.208E-23, 1.41E-19, 2.732E-21, 4.289E-22, 9.416E-24, 4.083E-21, 7.75E-23, 6.295E-20, 9.111E-16
0.1318, 5.582E-10, 5.582E-10, 9.934E-15, 6.542E-18, 1.14E-21, 6.542E-18, 5.956E-22, 5.893E-23, 3.208E-23, 1.378E-19, 2.701E-21, 4.24E-22, 9.097E-24, 3.967E-21, 7.573E-23, 6.116E-20, 8.711E-16
0.1334, 5.365E-10, 5.365E-10, 9.487E-15, 6.512E-18, 1.134E-21, 6.512E-18, 5.888E-22, 5.859E-23, 3.208E-23, 1.347E-19, 2.67E-21, 4.191E-22, 8.788E-24, 3.855E-21, 7.401E-23, 5.943E-20, 8.329E-16
0.1349, 5.157E-10, 5.157E-10, 9.06E-15, 6.483E-18, 1.127E-21, 6.483E-18, 5.82E-22, 5.826E-23, 3.208E-23, 1.316E-19, 2.639E-21, 4.143E-22, 8.49E-24, 3.745E-21, 7.233E-23, 5.774E-20, 7.964E-16
0.1365, 4.96E-10, 4.96E-10, 8.652E-15, 6.454E-18, 1.121E-21, 6.454E-18, 5.754E-22, 5.792E-23, 3.208E-23, 1.286E-19, 2.609E-21, 4.096E-22, 8.201E-24, 3.639E-21, 7.068E-23, 5.61E-20, 7.615E-16
0.138, 4.772E-10, 4.772E-10, 8.263E-15, 6.425E-18, 1.114E-21, 6.425E-18, 5.688E-22, 5.759E-23, 3.208E-23, 1.257E-19, 2.579E-21, 4.049E-22, 7.923E-24, 3.536E-21, 6.907E-23, 5.451E-20, 7.281E-16
0.1396, 4.592E-10, 4.592E-10, 7.891E-15, 6.397E-18, 1.108E-21, 6.397E-18, 5.623E-22, 5.726E-23, 3.208E-23, 1.228E-19, 2.55E-21, 4.003E-22, 7.654E-24, 3.435E-21, 6.75E-23, 5.296E-20, 6.963E-16
0.1413, 4.42E-10, 4.42E-10, 7.536E-15, 6.369E-18, 1.101E-21, 6.369E-18, 5.558E-22, 5.693E-23, 3.208E-23, 1.2E-19, 2.52E-21, 3.957E-22, 7.394E-24, 3.338E-21, 6.596E-23, 5.146E-20, 6.659E-16
0.1429, 4.256E-10, 4.256E-10, 7.196E-15, 6.341E-18, 1.095E-21, 6.341E-18, 5.495E-22, 5.661E-23, 3.208E-23, 1.173E-19, 2.492E-21, 3.912E-22, 7.143E-24, 3.243E-21, 6.446E-23, 5E-20, 6.368E-16
0.1445, 4.099E-10, 4.099E-10, 6.873E-15, 6.314E-18, 1.089E-21, 6.314E-18, 5.432E-22, 5.628E-23, 3.208E-23, 1.146E-19, 2.463E-21, 3.867E-22, 6.901E-24, 3.151E-21, 6.299E-23, 4.858E-20, 6.09E-16
0.1462, 3.95E-10, 3.95E-10, 6.563E-15, 6.287E-18, 1.083E-21, 6.287E-18, 5.37E-22, 5.596E-23, 3.208E-23, 1.12E-19, 2.435E-21, 3.823E-22, 6.666E-24, 3.062E-21, 6.156E-23, 4.72E-20, 5.824E-16
0.1479, 3.808E-10, 3.808E-10, 6.268E-15, 6.26E-18, 1.076E-21, 6.26E-18, 5.308E-22, 5.564E-23, 3.208E-23, 1.095E-19, 2.407E-21, 3.779E-22, 6.44E-24, 2.975E-21, 6.016E-23, 4.587E-20, 5.57E-16
0.1496, 3.672E-10, 3.672E-10, 5.986E-15, 6.234E-18, 1.07E-21, 6.234E-18, 5.247E-22, 5.532E-23, 3.208E-23, 1.07E-19, 2.379E-21, 3.736E-22, 6.221E-24, 2.891E-21, 5.879E-23, 4.456E-20, 5.328E-16
0.1514, 3.542E-10, 3.542E-10, 5.716E-15, 6.208E-18, 1.064E-21, 6.208E-18, 5.187E-22, 5.5E-23, 3.208E-23, 1.045E-19, 2.352E-21, 3.693E-22, 6.01E-24, 2.809E-21, 5.745E-23, 4.33E-20, 5.096E-16
0.1531, 3.418E-10, 3.418E-10, 5.459E-15, 6.182E-18, 1.058E-21, 6.182E-18, 5.128E-22, 5.468E-23, 3.208E-23, 1.022E-19, 2.325E-21, 3.651E-22, 5.806E-24, 2.729E-21, 5.614E-23, 4.207E-20, 4.874E-16
0.1549, 3.3E-10, 3.3E-10, 5.213E-15, 6.157E-18, 1.052E-21, 6.157E-18, 5.069E-22, 5.437E-23, 3.208E-23, 9.983E-20, 2.299E-21, 3.609E-22, 5.609E-24, 2.651E-21, 5.487E-23, 4.088E-20, 4.663E-16
0.1567, 3.187E-10, 3.187E-10, 4.979E-15, 6.132E-18, 1.046E-21, 6.132E-18, 5.011E-22, 5.406E-23, 3.208E-23, 9.755E-20, 2.272E-21, 3.568E-22, 5.419E-24, 2.576E-21, 5.362E-23, 3.972E-20, 4.46E-16
0.1585, 3.08E-10, 3.08E-10, 4.755E-15, 6.108E-18, 1.04E-21, 6.108E-18, 4.954E-22, 5.375E-23, 3.208E-23, 9.533E-20, 2.246E-21, 3.527E-22, 5.235E-24, 2.503E-21, 5.24E-23, 3.859E-20, 4.267E-16
0.1603, 2.977E-10, 2.977E-10, 4.541E-15, 6.084E-18, 1.034E-21, 6.084E-18, 4.897E-22, 5.344E-23, 3.208E-23, 9.316E-20, 2.221E-21, 3.487E-22, 5.057E-24, 2.432E-21, 5.12E-23, 3.75E-20, 4.082E-16
0.1622, 2.878E-10, 2.878E-10, 4.336E-15, 6.06E-18, 1.028E-21, 6.06E-18, 4.841E-22, 5.313E-23, 3.208E-23, 9.104E-20, 2.195E-21, 3.447E-22, 4.885E-24, 2.363E-21, 5.004E-23, 3.643E-20, 3.906E-16
0.1641, 2.785E-10, 2.785E-10, 4.141E-15, 6.036E-18, 1.022E-21, 6.036E-18, 4.786E-22, 5.283E-23, 3.208E-23, 8.897E-20, 2.17E-21, 3.407E-22, 4.719E-24, 2.296E-21, 4.89E-23, 3.54E-20, 3.737E-16
0.166, 2.696E-10, 2.696E-10, 3.955E-15, 6.013E-18, 1.016E-21, 6.013E-18, 4.731E-22, 5.252E-23, 3.208E-23, 8.694E-20, 2.145E-21, 3.368E-22, 4.559E-24, 2.231E-21, 4.779E-23, 3.439E-20, 3.575E-16
0.1679, 2.611E-10, 2.611E-10, 3.777E-15, 5.99E-18, 1.01E-21, 5.99E-18, 4.677E-22, 5.222E-23, 3.208E-23, 8.497E-20, 2.121E-21, 3.33E-22, 4.404E-24, 2.168E-21, 4.67E-23, 3.342E-20, 3.421E-16
0.1698, 2.53E-10, 2.53E-10, 3.607E-15, 5.968E-18, 1.005E-21, 5.968E-18, 4.623E-22, 5.192E-23, 3.208E-23, 8.303E-20, 2.096E-21, 3.292E-22, 4.255E-24, 2.106E-21, 4.564E-23, 3.247E-20, 3.274E-16
0.1718, 2.453E-10, 2.453E-10, 3.444E-15, 5.946E-18, 9.987E-22, 5.946E-18, 4.57E-22, 5.162E-23, 3.208E-23, 8.114E-20, 2.072E-21, 3.254E-22, 4.11E-24, 2.046E-21, 4.46E-23, 3.155E-20, 3.133E-16
0.1738, 2.379E-10, 2.379E-10, 3.289E-15, 5.925E-18, 9.93E-22, 5.925E-18, 4.518E-22, 5.133E-23, 3.208E-23, 7.929E-20, 2.049E-21, 3.217E-22, 3.971E-24, 1.988E-21, 4.358E-23, 3.065E-20, 2.998E-16
0.1758, 2.309E-10, 2.309E-10, 3.141E-15, 5.904E-18, 9.873E-22, 5.904E-18, 4.466E-22, 5.103E-23, 3.208E-23, 7.749E-20, 2.025E-21, 3.18E-22, 3.836E-24, 1.932E-21, 4.259E-23, 2.978E-20, 2.87E-16
0.1778, 2.243E-10, 2.243E-10, 3E-15, 5.883E-18, 9.816E-22, 5.883E-18, 4.415E-22, 5.074E-23, 3.208E-23, 7.573E-20, 2.002E-21, 3.144E-22, 3.706E-24, 1.877E-21, 4.162E-23, 2.894E-20, 2.747E-16
0.1799, 2.18E-10, 2.18E-10, 2.865E-15, 5.863E-18, 9.76E-22, 5.863E-18, 4.365E-22, 5.045E-23, 3.208E-23, 7.4E-20, 1.979E-21, 3.108E-22, 3.58E-24, 1.824E-21, 4.067E-23, 2.812E-20, 2.629E-16
0.182, 2.12E-10, 2.12E-10, 2.736E-15, 5.843E-18, 9.704E-22, 5.843E-18, 4.315E-22, 5.016E-23, 3.208E-23, 7.232E-20, 1.956E-21, 3.072E-22, 3.458E-24, 1.772E-21, 3.975E-23, 2.732E-20, 2.516E-16
0.1841, 2.063E-10, 2.063E-10, 2.613E-15, 5.823E-18, 9.648E-22, 5.823E-18, 4.265E-22, 4.987E-23, 3.208E-23, 7.067E-20, 1.934E-21, 3.037E-22, 3.341E-24, 1.722E-21, 3.884E-23, 2.655E-20, 2.409E-16
0.1862, 2.009E-10, 2.009E-10, 2.495E-15, 5.804E-18, 9.593E-22, 5.804E-18, 4.216E-22, 4.959E-23, 3.208E-23, 6.906E-20, 1.912E-21, 3.003E-22, 3.228E-24, 1.673E-21, 3.796E-23, 2.579E-20, 2.306E-16
0.1884, 1.958E-10, 1.958E-10, 2.383E-15, 5.785E-18, 9.538E-22, 5.785E-18, 4.168E-22, 4.93E-23, 3.208E-23, 6.749E-20, 1.89E-21, 2.968E-22, 3.118E-24, 1.626E-21, 3.709E-23, 2.506E-20, 2.208E-16
0.1905, 1.909E-10, 1.909E-10, 2.276E-15, 5.767E-18, 9.483E-22, 5.767E-18, 4.121E-22, 4.902E-23, 3.208E-23, 6.595E-20, 1.868E-21, 2.934E-22, 3.012E-24, 1.579E-21, 3.625E-23, 2.435E-20, 2.114E-16
0.1928, 1.862E-10, 1.862E-10, 2.173E-15, 5.749E-18, 9.429E-22, 5.749E-18, 4.073E-22, 4.874E-23, 3.208E-23, 6.445E-20, 1.847E-21, 2.901E-22, 2.91E-24, 1.535E-21, 3.542E-23, 2.366E-20, 2.024E-16
0.195, 1.819E-10, 1.819E-10, 2.075E-15, 5.732E-18, 9.375E-22, 5.732E-18, 4.027E-22, 4.846E-23, 3.208E-23, 6.299E-20, 1.826E-21, 2.868E-22, 2.811E-24, 1.491E-21, 3.462E-23, 2.299E-20, 1.938E-16
0.1972, 1.778E-10, 1.778E-10, 1.982E-15, 5.715E-18, 9.321E-22, 5.715E-18, 3.981E-22, 4.818E-23, 3.208E-23, 6.155E-20, 1.805E-21, 2.835E-22, 2.716E-24, 1.449E-21, 3.383E-23, 2.234E-20, 1.856E-16
0.1995, 1.74E-10, 1.74E-10, 1.893E-15, 5.699E-18, 9.267E-22, 5.699E-18, 3.935E-22, 4.79E-23, 3.208E-23, 6.015E-20, 1.784E-21, 2.803E-22, 2.624E-24, 1.408E-21, 3.306E-23, 2.17E-20, 1.778E-16
0.2018, 1.704E-10, 1.704E-10, 1.808E-15, 5.683E-18, 9.214E-22, 5.683E-18, 3.89E-22, 4.763E-23, 3.208E-23, 5.878E-20, 1.764E-21, 2.771E-22, 2.534E-24, 1.368E-21, 3.231E-23, 2.109E-20, 1.703E-16
0.2042, 1.671E-10, 1.671E-10, 1.726E-15, 5.668E-18, 9.161E-22, 5.668E-18, 3.846E-22, 4.735E-23, 3.208E-23, 5.744E-20, 1.744E-21, 2.739E-22, 2.448E-24, 1.329E-21, 3.157E-23, 2.049E-20, 1.631E-16
0.2065, 1.64E-10, 1.64E-10, 1.649E-15, 5.653E-18, 9.109E-22, 5.653E-18, 3.802E-22, 4.708E-23, 3.208E-23, 5.614E-20, 1.724E-21, 2.708E-22, 2.365E-24, 1.291E-21, 3.085E-23, 1.991E-20, 1.563E-16
0.2089, 1.612E-10, 1.612E-10, 1.574E-15, 5.638E-18, 9.056E-22, 5.638E-18, 3.758E-22, 4.681E-23, 3.208E-23, 5.486E-20, 1.704E-21, 2.677E-22, 2.285E-24, 1.255E-21, 3.015E-23, 1.934E-20, 1.497E-16
0.2113, 1.586E-10, 1.586E-10, 1.504E-15, 5.624E-18, 9.004E-22, 5.624E-18, 3.715E-22, 4.654E-23, 3.208E-23, 5.361E-20, 1.684E-21, 2.646E-22, 2.207E-24, 1.219E-21, 2.947E-23, 1.879E-20, 1.434E-16
0.2138, 1.562E-10, 1.562E-10, 1.436E-15, 5.611E-18, 8.953E-22, 5.611E-18, 3.672E-22, 4.628E-23, 3.208E-23, 5.239E-20, 1.665E-21, 2.616E-22, 2.132E-24, 1.184E-21, 2.879E-23, 1.826E-20, 1.374E-16
0.2163, 1.542E-10, 1.542E-10, 1.371E-15, 5.598E-18, 8.901E-22, 5.598E-18, 3.63E-22, 4.601E-23, 3.208E-23, 5.12E-20, 1.646E-21, 2.586E-22, 2.06E-24, 1.151E-21, 2.814E-23, 1.774E-20, 1.317E-16
0.2188, 1.523E-10, 1.523E-10, 1.31E-15, 5.586E-18, 8.85E-22, 5.586E-18, 3.589E-22, 4.575E-23, 3.208E-23, 5.003E-20, 1.627E-21, 2.556E-22, 1.99E-24, 1.118E-21, 2.75E-23, 1.724E-20, 1.262E-16
0.2213, 1.507E-10, 1.507E-10, 1.251E-15, 5.574E-18, 8.799E-22, 5.574E-18, 3.548E-22, 4.548E-23, 3.208E-23, 4.889E-20, 1.609E-21, 2.527E-22, 1.923E-24, 1.086E-21, 2.687E-23, 1.675E-20, 1.21E-16
0.2239, 1.494E-10, 1.494E-10, 1.194E-15, 5.563E-18, 8.749E-22, 5.563E-18, 3.507E-22, 4.522E-23, 3.208E-23, 4.778E-20, 1.59E-21, 2.498E-22, 1.857E-24, 1.056E-21, 2.626E-23, 1.627E-20, 1.16E-16
0.2265, 1.484E-10, 1.484E-10, 1.141E-15, 5.553E-18, 8.699E-22, 5.553E-18, 3.467E-22, 4.496E-23, 3.208E-23, 4.669E-20, 1.572E-21, 2.47E-22, 1.794E-24, 1.026E-21, 2.566E-23, 1.581E-20, 1.112E-16
0.2291, 1.478E-10, 1.478E-10, 1.089E-15, 5.543E-18, 8.649E-22, 5.543E-18, 3.427E-22, 4.471E-23, 3.208E-23, 4.563E-20, 1.554E-21, 2.442E-22, 1.733E-24, 9.965E-22, 2.508E-23, 1.536E-20, 1.066E-16
0.2317, 1.474E-10, 1.474E-10, 1.04E-15, 5.533E-18, 8.599E-22, 5.533E-18, 3.388E-22, 4.445E-23, 3.208E-23, 4.459E-20, 1.536E-21, 2.414E-22, 1.674E-24, 9.683E-22, 2.451E-23, 1.493E-20, 1.022E-16
0.2344, 1.474E-10, 1.474E-10, 9.934E-16, 5.525E-18, 8.55E-22, 5.525E-18, 3.349E-22, 4.419E-23, 3.208E-23, 4.358E-20, 1.519E-21, 2.386E-22, 1.618E-24, 9.408E-22, 2.395E-23, 1.45E-20, 9.802E-17
0.2371, 1.477E-10, 1.477E-10, 9.487E-16, 5.516E-18, 8.501E-22, 5.516E-18, 3.311E-22, 4.394E-23, 3.208E-23, 4.258E-20, 1.501E-21, 2.359E-22, 1.563E-24, 9.141E-22, 2.341E-23, 1.409E-20, 9.401E-17
0.2399, 1.486E-10, 1.486E-10, 9.06E-16, 5.509E-18, 8.452E-22, 5.509E-18, 3.273E-22, 4.369E-23, 3.208E-23, 4.161E-20, 1.484E-21, 2.332E-22, 1.51E-24, 8.882E-22, 2.287E-23, 1.369E-20, 9.018E-17
0.2427, 1.5E-10, 1.5E-10, 8.652E-16, 5.502E-18, 8.403E-22, 5.502E-18, 3.236E-22, 4.344E-23, 3.208E-23, 4.067E-20, 1.467E-21, 2.305E-22, 1.458E-24, 8.63E-22, 2.235E-23, 1.33E-20, 8.651E-17
0.2455, 1.52E-10, 1.52E-10, 8.263E-16, 5.496E-18, 8.355E-22, 5.496E-18, 3.199E-22, 4.319E-23, 3.208E-23, 3.974E-20, 1.45E-21, 2.279E-22, 1.409E-24, 8.385E-22, 2.184E-23, 1.293E-20, 8.3E-17
0.2483, 1.547E-10, 1.547E-10, 7.891E-16, 5.491E-18, 8.307E-22, 5.491E-18, 3.162E-22, 4.294E-23, 3.208E-23, 3.884E-20, 1.434E-21, 2.253E-22, 1.361E-24, 8.147E-22, 2.135E-23, 1.256E-20, 7.964E-17
0.2512, 1.582E-10, 1.582E-10, 7.536E-16, 5.487E-18, 8.259E-22, 5.487E-18, 3.126E-22, 4.269E-23, 3.208E-23, 3.795E-20, 1.417E-21, 2.227E-22, 1.315E-24, 7.916E-22, 2.086E-23, 1.22E-20, 7.643E-17
0.2541, 1.631E-10, 1.631E-10, 7.196E-16, 5.483E-18, 8.212E-22, 5.483E-18, 3.09E-22, 4.245E-23, 3.208E-23, 3.709E-20, 1.401E-21, 2.202E-22, 1.27E-24, 7.691E-22, 2.039E-23, 1.186E-20, 7.336E-17
0.257, 1.696E-10, 1.696E-10, 6.873E-16, 5.48E-18, 8.165E-22, 5.48E-18, 3.055E-22, 4.22E-23, 3.208E-23, 3.624E-20, 1.385E-21, 2.177E-22, 1.227E-24, 7.473E-22, 1.992E-23, 1.152E-20, 7.042E-17
0.26, 1.785E-10, 1.785E-10, 6.563E-16, 5.478E-18, 8.118E-22, 5.478E-18, 3.02E-22, 4.196E-23, 3.208E-23, 3.542E-20, 1.369E-21, 2.152E-22, 1.185E-24, 7.261E-22, 1.947E-23, 1.119E-20, 6.762E-17
0.263, 1.92E-10, 1.92E-10, 6.268E-16, 5.476E-18, 8.071E-22, 5.476E-18, 2.985E-22, 4.172E-23, 3.208E-23, 3.461E-20, 1.354E-21, 2.127E-22, 1.145E-24, 7.055E-22, 1.902E-23, 1.088E-20, 6.493E-17
0.2661, 2.267E-10, 2.267E-10, 5.986E-16, 5.476E-18, 8.025E-22, 5.476E-18, 2.951E-22, 4.148E-23, 3.208E-23, 3.383E-20, 1.338E-21, 2.103E-22, 1.106E-24, 6.855E-22, 1.859E-23, 1.057E-20, 6.236E-17
0.2692, 1.564E-10, 1.564E-10, 5.716E-16, 5.476E-18, 7.979E-22, 5.476E-18, 2.917E-22, 4.124E-23, 3.208E-23, 3.306E-20, 1.323E-21, 2.079E-22, 1.069E-24, 6.66E-22, 1.817E-23, 1.027E-20, 5.99E-17
0.2723, 2.262E-10, 2.262E-10, 5.459E-16, 5.478E-18, 7.933E-22, 5.478E-18, 2.884E-22, 4.101E-23, 3.208E-23, 3.23E-20, 1.308E-21, 2.055E-22, 1.032E-24, 6.471E-22, 1.775E-23, 9.977E-21, 5.755E-17
0.2754, 3.093E-10, 3.093E-10, 5.213E-16, 5.48E-18, 7.888E-22, 5.48E-18, 2.851E-22, 4.077E-23, 3.208E-23, 3.157E-20, 1.293E-21, 2.032E-22, 9.974E-25, 6.288E-22, 1.735E-23, 9.694E-21, 5.53E-17
0.2786, 8.412E-10, 8.412E-10, 4.979E-16, 5.484E-18, 7.842E-22, 5.484E-18, 2.818E-22, 4.054E-23, 3.208E-23, 3.085E-20, 1.278E-21, 2.009E-22, 9.636E-25, 6.11E-22, 1.696E-23, 9.419E-21, 5.314E-17
0.2818, 2.197E-9, 2.197E-9, 4.755E-16, 5.488E-18, 7.797E-22, 5.488E-18, 2.786E-22, 4.031E-23, 3.208E-23, 3.015E-20, 1.263E-21, 1.986E-22, 9.309E-25, 5.936E-22, 1.657E-23, 9.152E-21, 5.109E-17
0.2851, 1.153E-10, 1.153E-10, 4.541E-16, 5.494E-18, 7.753E-22, 5.494E-18, 2.754E-22, 4.007E-23, 3.208E-23, 2.946E-20, 1.249E-21, 1.963E-22, 8.993E-25, 5.768E-22, 1.619E-23, 8.892E-21, 4.912E-17
0.2884, 8.707E-11, 8.707E-11, 4.336E-16, 5.5E-18, 7.708E-22, 5.5E-18, 2.723E-22, 3.984E-23, 3.208E-23, 2.879E-20, 1.234E-21, 1.941E-22, 8.687E-25, 5.604E-22, 1.582E-23, 8.64E-21, 4.723E-17
0.2917, 1.406E-10, 1.406E-10, 4.141E-16, 5.508E-18, 7.664E-22, 5.508E-18, 2.691E-22, 3.962E-23, 3.208E-23, 2.813E-20, 1.22E-21, 1.919E-22, 8.392E-25, 5.445E-22, 1.546E-23, 8.395E-21, 4.543E-17
0.2951, 2.122E-10, 2.122E-10, 3.955E-16, 5.517E-18, 7.62E-22, 5.517E-18, 2.661E-22, 3.939E-23, 3.208E-23, 2.749E-20, 1.206E-21, 1.897E-22, 8.107E-25, 5.291E-22, 1.511E-23, 8.157E-21, 4.371E-17
0.2985, 3.031E-10, 3.031E-10, 3.777E-16, 5.527E-18, 7.576E-22, 5.527E-18, 2.63E-22, 3.916E-23, 3.208E-23, 2.687E-20, 1.193E-21, 1.875E-22, 7.832E-25, 5.141E-22, 1.477E-23, 7.925E-21, 4.206E-17
0.302, 4.445E-10, 4.445E-10, 3.607E-16, 5.539E-18, 7.533E-22, 5.539E-18, 2.6E-22, 3.894E-23, 3.208E-23, 2.626E-20, 1.179E-21, 1.854E-22, 7.566E-25, 4.995E-22, 1.443E-23, 7.7E-21, 4.048E-17
0.3055, 7.837E-10, 7.837E-10, 3.444E-16, 5.552E-18, 7.489E-22, 5.552E-18, 2.57E-22, 3.871E-23, 3.208E-23, 2.566E-20, 1.165E-21, 1.833E-22, 7.309E-25, 4.853E-22, 1.41E-23, 7.482E-21, 3.897E-17
0.309, 2.162E-9, 2.162E-9, 3.289E-16, 5.567E-18, 7.446E-22, 5.567E-18, 2.541E-22, 3.849E-23, 3.208E-23, 2.508E-20, 1.152E-21, 1.812E-22, 7.061E-25, 4.715E-22, 1.378E-23, 7.27E-21, 3.753E-17
0.3126, 1.488E-9, 1.488E-9, 3.141E-16, 5.583E-18, 7.404E-22, 5.583E-18, 2.512E-22, 3.827E-23, 3.208E-23, 2.45E-20, 1.139E-21, 1.791E-22, 6.822E-25, 4.582E-22, 1.347E-23, 7.063E-21, 3.615E-17
0.3162, 5.772E-10, 5.772E-10, 3E-16, 5.6E-18, 7.361E-22, 5.6E-18, 2.483E-22, 3.805E-23, 3.208E-23, 2.395E-20, 1.126E-21, 1.771E-22, 6.59E-25, 4.452E-22, 1.316E-23, 6.863E-21, 3.483E-17
0.3199, 3.429E-10, 3.429E-10, 2.865E-16, 5.62E-18, 7.319E-22, 5.62E-18, 2.455E-22, 3.783E-23, 3.208E-23, 2.34E-20, 1.113E-21, 1.751E-22, 6.366E-25, 4.325E-22, 1.286E-23, 6.668E-21, 3.357E-17
0.3236, 2.465E-10, 2.465E-10, 2.736E-16, 5.641E-18, 7.277E-22, 5.641E-18, 2.427E-22, 3.761E-23, 3.208E-23, 2.287E-20, 1.1E-21, 1.731E-22, 6.15E-25, 4.203E-22, 1.257E-23, 6.479E-21, 3.237E-17
